Time (s),Voltage (V),Current (A),SoC
0,3.77,0.55,100
100,3.74,0.55,94
200,3.72,0.55,88
300,3.69,0.55,82
400,3.67,0.55,76
500,3.65,0.55,70
600,3.63,0.55,64
700,3.61,0.55,58
800,3.59,0.55,52
900,3.57,0.55,46
1000,3.55,0.55,40
1100,3.53,0.55,34
1200,3.51,0.55,28
1300,3.49,0.55,22
1400,3.47,0.55,16
1500,3.45,0.55,10
1600,3.43,0.55,4
1700,3.41,0.55,0